Order,	Nominal_X,	Nominal_Y,	Nominal_Z,	Measured_X,	Measured_Y,	Measured_Z,	Corrected_X,	Corrected_Y,	Corrected_Z,	DevMeasured_X,	DevMeasured_Y,	DevMeasured_Z,	DevCorrected_X,	DevCorrected_Y,	DevCorrected_Z
Order,Nominal points [mm],Measured points [mm],Corrected points [mm],Dev. before corr. [mm],Dev. after corr. [mm]
1, 1419.539, 20.000, 528.030 , 1356.312, -249.159, 661.850 , 1419.539, 19.999, 528.031 , -63.227, -269.159, 133.820 , 0.000, -0.001, 0.000 
2, 1410.657, 57.029, 517.849 , 1358.172, -213.163, 645.899 , 1410.658, 57.027, 517.849 , -52.486, -270.191, 128.049 , 0.000, -0.001, -0.000 
3, 1379.687, 93.474, 499.738 , 1338.996, -173.271, 620.280 , 1379.687, 93.472, 499.738 , -40.691, -266.744, 120.542 , 0.001, -0.001, -0.001 
4, 1327.115, 128.760, 473.983 , 1299.085, -130.112, 585.398 , 1327.116, 128.758, 473.982 , -28.030, -258.872, 111.415 , 0.001, -0.001, -0.001 
5, 1253.772, 162.330, 440.989 , 1239.070, -84.368, 541.803 , 1253.773, 162.329, 440.987 , -14.701, -246.699, 100.814 , 0.001, -0.001, -0.001 
6, 1160.814, 193.657, 401.276 , 1159.898, -36.760, 490.181 , 1160.815, 193.655, 401.275 , -0.916, -230.417, 88.905 , 0.001, -0.001, -0.002 
7, 1049.706, 222.244, 355.472 , 1062.815, 11.961, 431.349 , 1049.708, 222.243, 355.470 , 13.109, -210.283, 75.876 , 0.001, -0.001, -0.002 
8, 922.202, 247.642, 304.299 , 949.354, 61.028, 366.232 , 922.204, 247.641, 304.297 , 27.152, -186.614, 61.933 , 0.001, -0.001, -0.002 
9, 780.312, 269.450, 248.563 , 821.304, 109.666, 295.859 , 780.314, 269.449, 248.561 , 40.992, -159.784, 47.296 , 0.002, -0.001, -0.003 
10, 626.274, 287.324, 189.144 , 680.685, 157.108, 221.338 , 626.276, 287.323, 189.141 , 54.411, -130.216, 32.194 , 0.002, -0.001, -0.003 
11, 462.517, 300.982, 126.978 , 529.713, 202.606, 143.846 , 462.519, 300.981, 126.975 , 67.196, -98.376, 16.868 , 0.002, -0.001, -0.003 
12, 291.623, 310.209, 63.047 , 370.771, 245.443, 64.604 , 291.625, 310.209, 63.044 , 79.148, -64.767, 1.557 , 0.002, -0.001, -0.003 
13, 116.288, 314.859, -1.643 , 206.363, 284.942, -15.139 , 116.290, 314.859, -1.646 , 90.075, -29.917, -13.496 , 0.002, -0.001, -0.003 
14, -60.723, 314.859, -66.070 , 39.084, 320.481, -94.123 , -60.722, 314.859, -66.073 , 99.808, 5.622, -28.054 , 0.002, -0.000, -0.003 
15, -236.619, 310.209, -129.218 , -128.428, 351.500, -171.105 , -236.618, 310.209, -129.221 , 108.192, 41.291, -41.887 , 0.002, -0.000, -0.003 
16, -408.626, 300.982, -190.092 , -293.532, 377.510, -244.869 , -408.624, 300.982, -190.095 , 115.094, 76.527, -54.777 , 0.002, 0.000, -0.003 
17, -574.031, 287.324, -247.731 , -453.625, 398.099, -314.253 , -574.029, 287.324, -247.734 , 120.406, 110.775, -66.521 , 0.002, 0.000, -0.003 
18, -730.225, 269.450, -301.228 , -606.180, 412.944, -378.162 , -730.223, 269.451, -301.230 , 124.045, 143.494, -76.934 , 0.002, 0.000, -0.003 
19, -874.745, 247.642, -349.737 , -748.793, 421.810, -435.588 , -874.744, 247.643, -349.739 , 125.952, 174.168, -85.852 , 0.001, 0.001, -0.002 
20, -1005.313, 222.244, -392.493 , -879.214, 424.558, -485.626 , -1005.312, 222.245, -392.496 , 126.099, 202.314, -93.133 , 0.001, 0.001, -0.002 
21, -1119.868, 193.657, -428.824 , -995.387, 421.144, -527.487 , -1119.867, 193.658, -428.826 , 124.481, 227.487, -98.663 , 0.001, 0.001, -0.002 
22, -1216.605, 162.330, -458.155 , -1095.479, 411.621, -560.510 , -1216.604, 162.332, -458.156 , 121.126, 249.291, -102.355 , 0.001, 0.001, -0.002 
23, -1293.997, 128.760, -480.024 , -1177.912, 396.141, -584.175 , -1293.996, 128.761, -480.025 , 116.085, 267.382, -104.151 , 0.001, 0.001, -0.001 
24, -1350.825, 93.474, -494.086 , -1241.386, 374.948, -598.108 , -1350.824, 93.475, -494.087 , 109.439, 281.474, -104.021 , 0.001, 0.001, -0.001 
25, -1386.191, 57.029, -500.120 , -1284.899, 348.375, -602.090 , -1386.191, 57.030, -500.121 , 101.292, 291.346, -101.969 , 0.000, 0.001, -0.000 
26, -1399.539, 20.000, -498.030 , -1307.767, 316.841, -596.057 , -1399.539, 20.002, -498.030 , 91.772, 296.841, -98.027 , 0.000, 0.002, 0.000 
27, -1390.657, -17.029, -487.849 , -1309.627, 280.844, -580.106 , -1390.657, -17.027, -487.849 , 81.031, 297.873, -92.257 , 0.000, 0.002, 0.001 
28, -1359.687, -53.474, -469.738 , -1290.450, 240.952, -554.488 , -1359.687, -53.472, -469.737 , 69.236, 294.426, -84.749 , -0.000, 0.002, 0.001 
29, -1307.115, -88.760, -443.983 , -1250.540, 197.794, -519.606 , -1307.115, -88.758, -443.981 , 56.575, 286.554, -75.623 , -0.000, 0.002, 0.001 
30, -1233.772, -122.330, -410.989 , -1190.525, 152.050, -476.010 , -1233.772, -122.329, -410.987 , 43.247, 274.381, -65.022 , -0.000, 0.002, 0.002 
31, -1140.814, -153.657, -371.276 , -1111.352, 104.442, -424.389 , -1140.814, -153.655, -371.274 , 29.461, 258.099, -53.113 , -0.001, 0.002, 0.002 
32, -1029.706, -182.244, -325.472 , -1014.270, 55.720, -365.556 , -1029.707, -182.243, -325.470 , 15.437, 237.965, -40.084 , -0.001, 0.002, 0.002 
33, -902.202, -207.642, -274.299 , -900.809, 6.654, -300.440 , -902.203, -207.641, -274.296 , 1.393, 214.296, -26.141 , -0.001, 0.002, 0.003 
34, -760.312, -229.450, -218.563 , -772.759, -41.984, -230.066 , -760.313, -229.449, -218.560 , -12.447, 187.466, -11.503 , -0.001, 0.001, 0.003 
35, -606.274, -247.324, -159.144 , -632.140, -89.426, -155.546 , -606.275, -247.323, -159.141 , -25.865, 157.898, 3.598 , -0.001, 0.001, 0.003 
36, -442.517, -260.982, -96.978 , -481.168, -134.924, -78.053 , -442.518, -260.981, -96.975 , -38.651, 126.058, 18.925 , -0.001, 0.001, 0.003 
37, -271.623, -270.209, -33.047 , -322.225, -177.761, 1.189 , -271.624, -270.208, -33.043 , -50.602, 92.449, 34.235 , -0.001, 0.001, 0.004 
38, -96.288, -274.859, 31.643 , -157.818, -217.260, 80.931 , -96.289, -274.858, 31.646 , -61.530, 57.599, 49.288 , -0.001, 0.001, 0.004 
39, 80.723, -274.859, 96.070 , 9.461, -252.800, 159.916 , 80.722, -274.859, 96.073 , -71.263, 22.060, 63.846 , -0.001, 0.001, 0.004 
40, 256.619, -270.209, 159.218 , 176.973, -283.819, 236.897 , 256.618, -270.209, 159.222 , -79.646, -13.609, 77.679 , -0.001, 0.001, 0.004 
41, 428.626, -260.982, 220.092 , 342.078, -309.828, 310.661 , 428.625, -260.982, 220.095 , -86.549, -48.845, 90.569 , -0.001, 0.000, 0.003 
42, 594.031, -247.324, 277.731 , 502.170, -330.417, 380.045 , 594.030, -247.324, 277.735 , -91.861, -83.093, 102.314 , -0.001, 0.000, 0.003 
43, 750.225, -229.450, 331.228 , 654.725, -345.262, 443.954 , 750.224, -229.450, 331.231 , -95.500, -115.812, 112.727 , -0.001, -0.000, 0.003 
44, 894.745, -207.642, 379.737 , 797.338, -354.128, 501.380 , 894.744, -207.642, 379.739 , -97.407, -146.486, 121.644 , -0.001, -0.000, 0.003 
45, 1025.313, -182.244, 422.493 , 927.760, -356.876, 551.419 , 1025.312, -182.245, 422.496 , -97.553, -174.632, 128.925 , -0.001, -0.000, 0.003 
46, 1139.868, -153.657, 458.824 , 1043.932, -353.462, 593.279 , 1139.868, -153.657, 458.826 , -95.936, -199.805, 134.455 , -0.001, -0.001, 0.002 
47, 1236.605, -122.330, 488.155 , 1144.024, -343.940, 626.302 , 1236.604, -122.331, 488.157 , -92.580, -221.609, 138.147 , -0.000, -0.001, 0.002 
48, 1313.997, -88.760, 510.024 , 1226.457, -328.460, 649.967 , 1313.997, -88.760, 510.026 , -87.540, -239.700, 139.943 , -0.000, -0.001, 0.002 
49, 1370.825, -53.474, 524.086 , 1289.931, -307.266, 663.900 , 1370.825, -53.475, 524.088 , -80.894, -253.792, 139.814 , -0.000, -0.001, 0.001 
50, 1406.191, -17.029, 530.120 , 1333.445, -280.693, 667.882 , 1406.191, -17.030, 530.121 , -72.747, -263.664, 137.762 , 0.000, -0.001, 0.001 
